transition_id,source_index,target_index,Ji,Ki,parity_i,mF_i,xi_i,Jf,Kf,parity_f,mF_f,xi_f,signed_frequency_khz,rabi_over_2pi_khz
0,18,86,2,2,+,2.5,1,3,2,+,3.5,1,2000341926.0089998,2.601
1,93,23,3,2,+,-3.5,1,2,2,+,-2.5,1,-2000341929.8630002,2.601
2,49,48,3,3,+,3.5,1,3,3,+,4.5,1,-6.105000019073486,2.487
3,50,49,3,3,+,2.5,1,3,3,+,3.5,1,-6.190000057220459,2.399
4,74,75,3,3,+,0.5,4,3,3,+,1.5,4,4.7789998054504395,2.354
5,56,55,3,3,+,-3.5,1,3,3,+,-2.5,1,-6.781000137329102,2.306
6,27,94,2,2,+,1.5,2,3,2,+,2.5,2,2000341948.63,2.282
7,28,111,0,0,-,1.5,1,2,0,-,2.5,1,1965253875.991,2.223
8,57,56,3,3,+,-4.5,1,3,3,+,-3.5,1,-6.892000198364258,2.209
9,89,19,3,2,+,0.5,1,2,2,+,1.5,1,-2000341932.9349997,2.185
10,22,90,2,2,+,-1.5,1,3,2,+,-0.5,1,2000341922.855,2.146
11,115,30,2,0,-,-1.5,1,0,0,-,-0.5,1,-1965253875.702,2.105
12,24,98,2,2,+,-1.5,2,3,2,+,-0.5,2,2000341950.9459996,2.085
13,59,58,3,3,+,2.5,2,3,3,+,3.5,2,-4.553999900817871,2.035
14,21,89,2,2,+,-0.5,1,3,2,+,0.5,1,2000341923.8789997,2.027
15,98,26,3,2,+,-0.5,2,2,2,+,0.5,2,-2000341949.5959997,2.024
16,96,27,3,2,+,0.5,2,2,2,+,1.5,2,-2000341949.1339998,2.02
17,29,112,0,0,-,0.5,1,2,0,-,1.5,1,1965253867.978,2.005
18,34,0,2,1,+,0.5,1,1,1,+,1.5,1,-1334121288.248,2.003
19,102,42,2,1,-,0.5,1,1,1,-,1.5,1,-1310169288.2480001,2.003
20,77,76,2,2,-,1.5,1,2,2,-,2.5,1,-4.259999752044678,2.0
21,19,18,2,2,+,1.5,1,2,2,+,2.5,1,-4.260000109672546,2.0
22,2,34,1,1,+,-0.5,1,2,1,+,0.5,1,1334121276.638,1.977
23,44,102,1,1,-,-0.5,1,2,1,-,0.5,1,1310169276.6380002,1.977
24,123,31,2,0,-,-2.5,2,0,0,-,-1.5,1,-1965253944.9069998,1.976
25,65,71,3,3,+,-3.5,2,3,3,+,-2.5,3,65.77699995040894,1.975
26,39,5,2,1,+,-0.5,2,1,1,+,0.5,2,-1334121301.914,1.967
27,107,47,2,1,-,-0.5,2,1,1,-,0.5,2,-1310169301.914,1.967
28,97,24,3,2,+,-2.5,2,2,2,+,-1.5,2,-2000341950.902,1.961
29,0,32,1,1,+,1.5,1,2,1,+,2.5,1,1334121279.666,1.946
30,42,100,1,1,-,1.5,1,2,1,-,2.5,1,1310169279.666,1.946
31,37,3,2,1,+,-2.5,1,1,1,+,-1.5,1,-1334121283.561,1.946
32,105,45,2,1,-,-2.5,1,1,1,-,-1.5,1,-1310169283.5609999,1.946
33,120,28,2,0,-,0.5,2,0,0,-,1.5,1,-1965253967.998,1.941
34,116,31,2,0,-,-2.5,1,0,0,-,-1.5,1,-1965253868.4459999,1.917
35,25,96,2,2,+,-0.5,2,3,2,+,0.5,2,2000341950.001,1.909
36,67,66,3,3,+,1.5,3,3,3,+,2.5,3,-1.4819998741149902,1.905
37,90,20,3,2,+,-0.5,1,2,2,+,0.5,1,-2000341932.394,1.871
38,55,54,3,3,+,-2.5,1,3,3,+,-1.5,1,-6.672999858856201,1.861
39,84,85,2,2,-,0.5,2,2,2,-,1.5,2,0.32899999618530273,1.857
40,26,27,2,2,+,0.5,2,2,2,+,1.5,2,0.3299999237060547,1.857
41,10,17,1,0,+,-1.5,1,1,0,+,-0.5,3,88.53599998354912,1.843
42,8,12,1,0,+,0.5,1,1,0,+,1.5,2,44.48800000548363,1.838
43,9,16,1,0,+,-0.5,1,1,0,+,0.5,3,75.64900001883507,1.822
44,81,80,2,2,-,-2.5,1,2,2,-,-1.5,1,-5.295000076293945,1.808
45,23,22,2,2,+,-2.5,1,2,2,+,-1.5,1,-5.294999957084656,1.808
46,114,29,2,0,-,-0.5,1,0,0,-,0.5,1,-1965253883.154,1.797
47,11,15,1,0,+,-2.5,1,1,0,+,-1.5,2,48.57499998807907,1.791
48,71,72,3,3,+,-2.5,3,3,3,+,-1.5,4,41.62599992752075,1.79
49,57,65,3,3,+,-4.5,1,3,3,+,-3.5,2,88.78499984741211,1.79
50,88,18,3,2,+,1.5,1,2,2,+,2.5,1,-2000341933.395,1.776
51,127,30,2,0,-,-1.5,3,0,0,-,-0.5,1,-1965254006.333,1.772
52,30,120,0,0,-,-0.5,1,2,0,-,0.5,2,1965253937.3419998,1.744
53,111,110,2,0,-,2.5,1,2,0,-,3.5,1,-7.144000053405762,1.739
54,51,50,3,3,+,1.5,1,3,3,+,2.5,1,-6.2779998779296875,1.738
55,4,40,1,1,+,-0.5,2,2,1,+,0.5,2,1334121304.637,1.728
56,46,108,1,1,-,-0.5,2,2,1,-,0.5,2,1310169304.6370003,1.728
57,3,39,1,1,+,-1.5,1,2,1,+,-0.5,2,1334121327.538,1.723
58,45,107,1,1,-,-1.5,1,2,1,-,-0.5,2,1310169327.538,1.723
59,38,2,2,1,+,-1.5,2,1,1,+,-0.5,1,-1334121334.4250002,1.707
60,106,44,2,1,-,-1.5,2,1,1,-,-0.5,1,-1310169334.425,1.707
61,14,8,1,0,+,-0.5,2,1,0,+,0.5,1,-65.94400000572205,1.686
62,66,58,3,3,+,2.5,3,3,3,+,3.5,2,-89.96399974822998,1.679
63,72,69,3,3,+,-1.5,4,3,3,+,-0.5,3,-48.70599985122681,1.672
64,3,35,1,1,+,-1.5,1,2,1,+,-0.5,1,1334121273.4480002,1.65
65,45,103,1,1,-,-1.5,1,2,1,-,-0.5,1,1310169273.448,1.65
66,60,59,3,3,+,1.5,2,3,3,+,2.5,2,-4.72599983215332,1.641
67,16,7,1,0,+,0.5,3,1,0,+,1.5,1,-95.27599999308586,1.628
68,28,118,0,0,-,1.5,1,2,0,-,2.5,2,1965253956.214,1.624
69,29,124,0,0,-,0.5,1,2,0,-,1.5,3,1965254007.531,1.619
70,35,1,2,1,+,-0.5,1,1,1,+,0.5,1,-1334121287.39,1.619
71,103,43,2,1,-,-0.5,1,1,1,-,0.5,1,-1310169287.3899999,1.619
72,31,128,0,0,-,-1.5,1,2,0,-,-0.5,4,1965254015.6330001,1.616
73,23,91,2,2,+,-2.5,1,3,2,+,-1.5,1,2000341921.5400002,1.607
74,82,83,2,2,-,-1.5,2,2,2,-,-0.5,2,0.8129997253417969,1.597
75,24,25,2,2,+,-1.5,2,2,2,+,-0.5,2,0.812999963760376,1.597
76,36,4,2,1,+,-1.5,1,1,1,+,-0.5,2,-1334121254.799,1.567
77,104,46,2,1,-,-1.5,1,1,1,-,-0.5,2,-1310169254.799,1.567
78,31,126,0,0,-,-1.5,1,2,0,-,-0.5,3,1965253981.186,1.56
79,70,62,3,3,+,-1.5,3,3,3,+,-0.5,2,-78.67600011825562,1.555
80,117,123,2,0,-,-3.5,1,2,0,-,-2.5,2,68.19099998474121,1.546
81,58,48,3,3,+,3.5,2,3,3,+,4.5,1,-110.55900001525879,1.544
82,7,6,1,0,+,1.5,1,1,0,+,2.5,1,-9.180000007152557,1.54
83,125,28,2,0,-,0.5,3,0,0,-,1.5,1,-1965254024.3950002,1.532
84,117,116,2,0,-,-3.5,1,2,0,-,-2.5,1,-8.269999980926514,1.5
85,65,64,3,3,+,-3.5,2,3,3,+,-2.5,2,-6.056000232696533,1.481
86,64,63,3,3,+,-2.5,2,3,3,+,-1.5,2,-5.721999645233154,1.479
87,61,67,3,3,+,0.5,2,3,3,+,1.5,3,77.24199962615967,1.476
88,12,6,1,0,+,1.5,2,1,0,+,2.5,1,-63.27099999785423,1.475
89,69,74,3,3,+,-0.5,3,3,3,+,0.5,4,60.73099994659424,1.474
90,116,115,2,0,-,-2.5,1,2,0,-,-1.5,1,-8.07200002670288,1.461
91,75,66,3,3,+,1.5,4,3,3,+,2.5,3,-70.79699993133545,1.444
92,15,14,1,0,+,-1.5,2,1,0,+,-0.5,2,-13.766999989748001,1.441
93,69,61,3,3,+,-0.5,3,3,3,+,0.5,2,-81.04699993133545,1.415
94,31,121,0,0,-,-1.5,1,2,0,-,-0.5,2,1965253928.8279998,1.411
95,30,113,0,0,-,-0.5,1,2,0,-,0.5,1,1965253860.1439998,1.405
96,5,41,1,1,+,0.5,2,2,1,+,1.5,2,1334121302.922,1.401
97,47,109,1,1,-,0.5,2,2,1,-,1.5,2,1310169302.922,1.401
98,126,120,2,0,-,-0.5,3,2,0,-,0.5,2,-59.17200040817261,1.386
99,30,129,0,0,-,-0.5,1,2,0,-,0.5,4,1965254040.3630002,1.38
100,72,73,3,3,+,-1.5,4,3,3,+,-0.5,4,6.539999961853027,1.378
101,112,111,2,0,-,1.5,1,2,0,-,2.5,1,-7.315000057220459,1.36
102,22,21,2,2,+,-1.5,1,2,2,+,-0.5,1,-4.906999945640564,1.356
103,80,79,2,2,-,-1.5,1,2,2,-,-0.5,1,-4.9070000648498535,1.356
104,126,129,2,0,-,-0.5,3,2,0,-,0.5,4,43.848999977111816,1.348
105,121,29,2,0,-,-0.5,2,0,0,-,0.5,1,-1965253959.484,1.342
106,123,127,2,0,-,-2.5,2,2,0,-,-1.5,3,46.098000049591064,1.33
107,62,68,3,3,+,-0.5,2,3,3,+,0.5,3,73.80200004577637,1.321
108,73,68,3,3,+,-0.5,4,3,3,+,0.5,3,-57.33799982070923,1.312
109,40,0,2,1,+,0.5,2,1,1,+,1.5,1,-1334121347.53,1.292
110,108,42,2,1,-,0.5,2,1,1,-,1.5,1,-1310169347.5300002,1.292
111,68,75,3,3,+,0.5,3,3,3,+,1.5,4,67.60199975967407,1.288
112,63,53,3,3,+,-1.5,2,3,3,+,-0.5,1,-103.92199993133545,1.28
113,128,29,2,0,-,-0.5,4,0,0,-,0.5,1,-1965254046.2890003,1.277
114,13,7,1,0,+,0.5,2,1,0,+,1.5,1,-62.87099999189377,1.272
115,118,110,2,0,-,2.5,2,2,0,-,3.5,1,-87.36700010299683,1.271
116,97,22,3,2,+,-2.5,2,2,2,+,-1.5,1,-2000341999.27,1.269
117,120,124,2,0,-,0.5,2,2,0,-,1.5,3,54.861000061035156,1.259
118,15,9,1,0,+,-1.5,2,1,0,+,-0.5,1,-69.6870000064373,1.254
119,1,41,1,1,+,0.5,1,2,1,+,1.5,2,1334121342.488,1.251
120,43,109,1,1,-,0.5,1,2,1,-,1.5,2,1310169342.488,1.251
121,52,60,3,3,+,0.5,1,3,3,+,1.5,2,94.89400005340576,1.238
122,20,88,2,2,+,0.5,1,3,2,+,1.5,1,2000341924.711,1.218
123,23,99,2,2,+,-2.5,1,3,2,+,-1.5,2,2000341994.0540001,1.215
124,5,33,1,1,+,0.5,2,2,1,+,1.5,1,1334121238.867,1.209
125,47,101,1,1,-,0.5,2,2,1,-,1.5,1,1310169238.867,1.209
126,124,118,2,0,-,1.5,3,2,0,-,2.5,2,-66.64499998092651,1.193
127,71,63,3,3,+,-2.5,3,3,3,+,-1.5,2,-77.55499982833862,1.186
128,122,114,2,0,-,-1.5,2,2,0,-,-0.5,1,-83.97399997711182,1.172
129,23,24,2,2,+,-2.5,1,2,2,+,-1.5,2,43.07300007343292,1.17
130,81,82,2,2,-,-2.5,1,2,2,-,-1.5,2,43.07299995422363,1.17
131,62,52,3,3,+,-0.5,2,3,3,+,0.5,1,-104.97100019454956,1.167
132,64,54,3,3,+,-2.5,2,3,3,+,-1.5,1,-103.07499980926514,1.165
133,11,10,1,0,+,-2.5,1,1,0,+,-1.5,1,-10.715999990701675,1.157
134,51,59,3,3,+,1.5,1,3,3,+,2.5,2,96.53999996185303,1.155
135,113,119,2,0,-,0.5,1,2,0,-,1.5,2,71.04900026321411,1.152
136,113,28,2,0,-,0.5,1,0,0,-,1.5,1,-1965253890.8,1.148
137,60,66,3,3,+,1.5,2,3,3,+,2.5,3,80.68400001525879,1.147
138,121,113,2,0,-,-0.5,2,2,0,-,0.5,1,-84.01200008392334,1.146
139,128,125,2,0,-,-0.5,4,2,0,-,0.5,3,-37.22200012207031,1.126
140,20,19,2,2,+,0.5,1,2,2,+,1.5,1,-4.423999905586243,1.12
141,78,77,2,2,-,0.5,1,2,2,-,1.5,1,-4.424000263214111,1.12
142,122,128,2,0,-,-1.5,2,2,0,-,-0.5,4,79.16100025177002,1.102
143,54,53,3,3,+,-1.5,1,3,3,+,-0.5,1,-6.568999767303467,1.102
144,53,61,3,3,+,-0.5,1,3,3,+,0.5,2,93.34999990463257,1.083
145,68,67,3,3,+,0.5,3,3,3,+,1.5,3,-1.7130002975463867,1.058
146,121,125,2,0,-,-0.5,2,2,0,-,0.5,3,49.58300018310547,1.058
147,13,12,1,0,+,0.5,2,1,0,+,1.5,2,-8.780000001192093,1.056
148,128,129,2,0,-,-0.5,4,2,0,-,0.5,4,9.401999950408936,1.05
149,70,69,3,3,+,-1.5,3,3,3,+,-0.5,3,-2.7820000648498535,1.05
150,35,5,2,1,+,-0.5,1,1,1,+,0.5,2,-1334121247.8240001,1.048
151,103,47,2,1,-,-0.5,1,1,1,-,0.5,2,-1310169247.824,1.048
152,127,121,2,0,-,-1.5,3,2,0,-,-0.5,2,-62.17700004577637,1.043
153,10,9,1,0,+,-1.5,1,1,0,+,-0.5,1,-10.396000027656555,1.022
154,33,32,2,1,+,1.5,1,2,1,+,2.5,1,-4.208000183105469,1.0
155,101,100,2,1,-,1.5,1,2,1,-,2.5,1,-4.208000183105469,1.0
156,2,5,1,1,+,-0.5,1,1,1,+,0.5,2,33.397,0.995
157,4,1,1,1,+,-0.5,2,1,1,+,0.5,1,-37.452,0.995
158,46,43,1,1,-,-0.5,2,1,1,-,0.5,1,-37.45199990272522,0.995
159,44,47,1,1,-,-0.5,1,1,1,-,0.5,2,33.3970000743866,0.995
160,115,114,2,0,-,-1.5,1,2,0,-,-0.5,1,-7.875999927520752,0.986
161,119,118,2,0,-,1.5,2,2,0,-,2.5,2,-5.635000228881836,0.985
162,63,62,3,3,+,-1.5,2,3,3,+,-0.5,2,-5.419000148773193,0.985
163,82,79,2,2,-,-1.5,2,2,2,-,-0.5,1,-53.27500009536743,0.974
164,24,21,2,2,+,-1.5,2,2,2,+,-0.5,1,-53.27499997615814,0.974
165,29,119,0,0,-,0.5,1,2,0,-,1.5,2,1965253946.5210001,0.968
166,92,24,3,2,+,-2.5,1,2,2,+,-1.5,2,-2000341882.56,0.962
167,43,42,1,1,-,0.5,1,1,1,-,1.5,1,-5.440999984741211,0.958
168,1,0,1,1,+,0.5,1,1,1,+,1.5,1,-5.441,0.958
169,126,29,2,0,-,-0.5,3,0,0,-,0.5,1,-1965254011.8420002,0.957
170,95,18,3,2,+,1.5,2,2,2,+,2.5,1,-2000342017.19,0.952
171,112,118,2,0,-,1.5,1,2,0,-,2.5,2,72.9079999923706,0.949
172,15,17,1,0,+,-1.5,2,1,0,+,-0.5,3,29.24500000476837,0.947
173,91,25,3,2,+,-1.5,1,2,2,+,-0.5,2,-2000341877.6540003,0.947
174,114,120,2,0,-,-0.5,1,2,0,-,0.5,2,69.51599979400635,0.945
175,108,109,2,1,-,0.5,2,2,1,-,1.5,2,0.3989996910095215,0.929
176,40,41,2,1,+,0.5,2,2,1,+,1.5,2,0.3989999294281006,0.929
177,19,94,2,2,+,1.5,1,3,2,+,2.5,2,2000342012.641,0.912
178,91,21,3,2,+,-1.5,1,2,2,+,-0.5,1,-2000341931.742,0.908
179,129,124,2,0,-,0.5,4,2,0,-,1.5,3,-48.16000032424927,0.907
180,71,70,3,3,+,-2.5,3,3,3,+,-1.5,3,-4.297999858856201,0.905
181,105,104,2,1,-,-2.5,1,2,1,-,-1.5,1,-5.251999855041504,0.904
182,37,36,2,1,+,-2.5,1,2,1,+,-1.5,1,-5.252000093460083,0.904
183,9,13,1,0,+,-0.5,1,1,0,+,0.5,2,43.244000017642975,0.895
184,123,115,2,0,-,-2.5,2,2,0,-,-1.5,1,-84.5329999923706,0.859
185,79,84,2,2,-,-0.5,1,2,2,-,0.5,2,54.62599992752075,0.856
186,83,78,2,2,-,-0.5,2,2,2,-,0.5,1,-58.71999979019165,0.856
187,21,26,2,2,+,-0.5,1,2,2,+,0.5,2,54.625,0.856
188,25,20,2,2,+,-0.5,2,2,2,+,0.5,1,-58.72000002861023,0.856
189,17,8,1,0,+,-0.5,3,1,0,+,0.5,1,-108.95600000023842,0.856
190,1,33,1,1,+,0.5,1,2,1,+,1.5,1,1334121278.433,0.83
191,43,101,1,1,-,0.5,1,2,1,-,1.5,1,1310169278.433,0.83
192,50,58,3,3,+,2.5,1,3,3,+,3.5,2,98.26399993896484,0.827
193,61,51,3,3,+,0.5,2,3,3,+,1.5,1,-106.19000005722046,0.826
194,52,51,3,3,+,0.5,1,3,3,+,1.5,1,-6.371999740600586,0.824
195,65,55,3,3,+,-3.5,2,3,3,+,-2.5,1,-102.45800018310547,0.818
196,4,34,1,1,+,-0.5,2,2,1,+,0.5,1,1334121245.355,0.815
197,46,102,1,1,-,-0.5,2,2,1,-,0.5,1,1310169245.3550003,0.815
198,30,125,0,0,-,-0.5,1,2,0,-,0.5,3,1965253993.739,0.812
199,78,85,2,2,-,0.5,1,2,2,-,1.5,2,59.58699989318848,0.812
200,20,27,2,2,+,0.5,1,2,2,+,1.5,2,59.587000012397766,0.812
201,68,60,3,3,+,0.5,3,3,3,+,1.5,2,-83.87900018692017,0.802
202,27,18,2,2,+,1.5,2,2,2,+,2.5,1,-68.27100002765656,0.799
203,85,76,2,2,-,1.5,2,2,2,-,2.5,1,-68.27099990844727,0.799
204,106,107,2,1,-,-1.5,2,2,1,-,-0.5,2,0.8860001564025879,0.798
205,38,39,2,1,+,-1.5,2,2,1,+,-0.5,2,0.8859999179840088,0.798
206,27,87,2,2,+,1.5,2,3,2,+,2.5,1,2000341861.3990002,0.792
207,26,88,2,2,+,0.5,2,3,2,+,1.5,1,2000341865.454,0.787
208,45,46,1,1,-,-1.5,1,1,1,-,-0.5,2,23.509999990463257,0.781
209,3,4,1,1,+,-1.5,1,1,1,+,-0.5,2,23.51,0.781
210,61,60,3,3,+,0.5,2,3,3,+,1.5,2,-4.924000263214111,0.78
211,56,64,3,3,+,-3.5,1,3,3,+,-2.5,2,89.62099981307983,0.753
212,14,13,1,0,+,-0.5,2,1,0,+,0.5,2,-12.675999999046326,0.749
213,120,112,2,0,-,0.5,2,2,0,-,1.5,1,-84.69199991226196,0.741
214,31,114,0,0,-,-1.5,1,2,0,-,-0.5,1,1965253852.498,0.736
215,3,2,1,1,+,-1.5,1,1,1,+,-0.5,1,-7.773,0.726
216,45,44,1,1,-,-1.5,1,1,1,-,-0.5,1,-7.773000001907349,0.726
217,90,26,3,2,+,-0.5,1,2,2,+,0.5,2,-2000341873.137,0.72
218,73,74,3,3,+,-0.5,4,3,3,+,0.5,4,5.485000133514404,0.717
219,99,25,3,2,+,-1.5,2,2,2,+,-0.5,2,-2000341950.1680002,0.716
220,70,73,3,3,+,-1.5,3,3,3,+,-0.5,4,52.46399974822998,0.706
221,54,62,3,3,+,-1.5,1,3,3,+,-0.5,2,91.93400001525879,0.695
222,64,72,3,3,+,-2.5,2,3,3,+,-1.5,4,113.45900011062622,0.693
223,99,21,3,2,+,-1.5,2,2,2,+,-0.5,1,-2000342004.256,0.687
224,17,13,1,0,+,-0.5,3,1,0,+,0.5,2,-55.6879999935627,0.681
225,36,35,2,1,+,-1.5,1,2,1,+,-0.5,1,-4.860999822616577,0.678
226,104,103,2,1,-,-1.5,1,2,1,-,-0.5,1,-4.861000061035156,0.678
227,96,19,3,2,+,0.5,2,2,2,+,1.5,1,-2000342013.1449997,0.671
228,63,69,3,3,+,-1.5,2,3,3,+,-0.5,3,70.47499990463257,0.666
229,63,73,3,3,+,-1.5,2,3,3,+,-0.5,4,125.7209997177124,0.66
230,115,126,2,0,-,-1.5,1,2,0,-,-0.5,3,120.8120002746582,0.659
231,20,95,2,2,+,0.5,1,3,2,+,1.5,2,2000342008.506,0.652
232,121,129,2,0,-,-0.5,2,2,0,-,0.5,4,96.20700025558472,0.65
233,129,119,2,0,-,0.5,4,2,0,-,1.5,2,-109.17000007629395,0.646
234,116,127,2,0,-,-2.5,1,2,0,-,-1.5,3,122.55900001525879,0.641
235,22,98,2,2,+,-1.5,1,3,2,+,-0.5,2,2000341999.3139997,0.639
236,92,22,3,2,+,-2.5,1,2,2,+,-1.5,1,-2000341930.928,0.622
237,125,124,2,0,-,0.5,3,2,0,-,1.5,3,-1.5360002517700195,0.619
238,25,89,2,2,+,-0.5,2,3,2,+,0.5,1,2000341869.791,0.6
239,95,94,3,2,+,1.5,2,3,2,+,2.5,2,-0.2890000343322754,0.598
240,113,112,2,0,-,0.5,1,2,0,-,1.5,1,-7.49399995803833,0.589
241,87,86,3,2,+,2.5,1,3,2,+,3.5,1,-3.6610002517700195,0.587
242,127,126,2,0,-,-1.5,3,2,0,-,-0.5,3,-9.818999767303467,0.587
243,37,38,2,1,+,-2.5,1,2,1,+,-1.5,2,43.09100008010864,0.586
244,105,106,2,1,-,-2.5,1,2,1,-,-1.5,2,43.09100008010864,0.586
245,38,4,2,1,+,-1.5,2,1,1,+,-0.5,2,-1334121303.1420002,0.566
246,106,46,2,1,-,-1.5,2,1,1,-,-0.5,2,-1310169303.142,0.566
247,102,101,2,1,-,0.5,1,2,1,-,1.5,1,-4.374000072479248,0.56
248,34,33,2,1,+,0.5,1,2,1,+,1.5,1,-4.373999834060669,0.56
249,125,119,2,0,-,0.5,3,2,0,-,1.5,2,-62.5460000038147,0.547
250,59,49,3,3,+,2.5,2,3,3,+,3.5,1,-109.00799989700317,0.534
251,114,125,2,0,-,-0.5,1,2,0,-,0.5,3,125.91300010681152,0.532
252,88,87,3,2,+,1.5,1,3,2,+,2.5,1,-3.7249999046325684,0.529
253,8,7,1,0,+,0.5,1,1,0,+,1.5,1,-9.602999985218048,0.527
254,127,128,2,0,-,-1.5,3,2,0,-,-0.5,4,24.628000259399414,0.525
255,124,111,2,0,-,1.5,3,2,0,-,2.5,1,-146.86800003051758,0.514
256,126,125,2,0,-,-0.5,3,2,0,-,0.5,3,-2.7750000953674316,0.496
257,55,70,3,3,+,-2.5,1,3,3,+,-1.5,3,163.9370002746582,0.492
258,125,112,2,0,-,0.5,3,2,0,-,1.5,1,-141.08900022506714,0.488
259,38,35,2,1,+,-1.5,2,2,1,+,-0.5,1,-53.2039999961853,0.487
260,106,103,2,1,-,-1.5,2,2,1,-,-0.5,1,-53.2039999961853,0.487
261,122,121,2,0,-,-1.5,2,2,0,-,-0.5,2,-7.644000053405762,0.481
262,64,70,3,3,+,-2.5,2,3,3,+,-1.5,3,67.53500032424927,0.48
263,62,74,3,3,+,-0.5,2,3,3,+,0.5,4,136.625,0.477
264,116,122,2,0,-,-2.5,1,2,0,-,-1.5,2,68.02600002288818,0.47
265,5,0,1,1,+,0.5,2,1,1,+,1.5,1,-45.007,0.468
266,47,42,1,1,-,0.5,2,1,1,-,1.5,1,-45.00699996948242,0.468
267,54,69,3,3,+,-1.5,1,3,3,+,-0.5,3,167.82800006866455,0.46
268,74,60,3,3,+,0.5,4,3,3,+,1.5,2,-146.7020001411438,0.452
269,75,59,3,3,+,1.5,4,3,3,+,2.5,2,-156.20699977874756,0.45
270,96,95,3,2,+,0.5,2,3,2,+,1.5,2,-0.21499967575073242,0.441
271,56,71,3,3,+,-3.5,1,3,3,+,-2.5,3,161.4539999961853,0.435
272,97,99,3,2,+,-2.5,2,3,2,+,-1.5,2,0.07899999618530273,0.43
273,93,92,3,2,+,-3.5,1,3,2,+,-2.5,1,-4.230000019073486,0.429
274,39,34,2,1,+,-0.5,2,2,1,+,0.5,1,-58.67300009727478,0.428
275,35,40,2,1,+,-0.5,1,2,1,+,0.5,2,54.698999881744385,0.428
276,107,102,2,1,-,-0.5,2,2,1,-,0.5,1,-58.6729998588562,0.428
277,103,108,2,1,-,-0.5,1,2,1,-,0.5,2,54.69900035858154,0.428
278,26,95,2,2,+,0.5,2,3,2,+,1.5,2,2000341949.249,0.422
279,9,8,1,0,+,-0.5,1,1,0,+,0.5,1,-10.023999989032745,0.422
280,128,120,2,0,-,-0.5,4,2,0,-,0.5,2,-93.61900043487549,0.407
281,89,27,3,2,+,0.5,1,2,2,+,1.5,2,-2000341868.9239998,0.407
282,34,41,2,1,+,0.5,1,2,1,+,1.5,2,59.680999994277954,0.406
283,102,109,2,1,-,0.5,1,2,1,-,1.5,2,59.680999755859375,0.406
284,109,100,2,1,-,1.5,2,2,1,-,2.5,1,-68.26300001144409,0.399
285,41,32,2,1,+,1.5,2,2,1,+,2.5,1,-68.26300001144409,0.399
286,67,50,3,3,+,1.5,3,3,3,+,2.5,1,-189.70999956130981,0.39
287,44,43,1,1,-,-0.5,1,1,1,-,0.5,1,-6.168999910354614,0.383
288,46,47,1,1,-,-0.5,2,1,1,-,0.5,2,2.114000082015991,0.383
289,2,1,1,1,+,-0.5,1,1,1,+,0.5,1,-6.169,0.383
290,4,5,1,1,+,-0.5,2,1,1,+,0.5,2,2.113999999999997,0.383
291,129,28,2,0,-,0.5,4,0,0,-,1.5,1,-1965254071.0190003,0.382
292,115,121,2,0,-,-1.5,1,2,0,-,-0.5,2,68.4539999961853,0.38
293,53,68,3,3,+,-0.5,1,3,3,+,0.5,3,172.30499982833862,0.377
294,123,122,2,0,-,-2.5,2,2,0,-,-1.5,2,-8.434999942779541,0.373
295,92,91,3,2,+,-2.5,1,3,2,+,-1.5,1,-4.0929999351501465,0.365
296,17,16,1,0,+,-0.5,3,1,0,+,0.5,3,-23.282999992370605,0.355
297,66,49,3,3,+,2.5,3,3,3,+,3.5,1,-194.41799974441528,0.353
298,68,51,3,3,+,0.5,3,3,3,+,1.5,1,-185.1449999809265,0.353
299,120,119,2,0,-,0.5,2,2,0,-,1.5,2,-6.1489996910095215,0.344
300,126,113,2,0,-,-0.5,3,2,0,-,0.5,1,-136.37000036239624,0.341
301,73,61,3,3,+,-0.5,4,3,3,+,0.5,2,-136.29299974441528,0.335
302,24,90,2,2,+,-1.5,2,3,2,+,-0.5,1,2000341874.487,0.334
303,89,88,3,2,+,0.5,1,3,2,+,1.5,1,-3.799999713897705,0.328
304,10,14,1,0,+,-1.5,1,1,0,+,-0.5,2,45.523999989032745,0.322
305,19,87,2,2,+,1.5,1,3,2,+,2.5,1,2000341925.41,0.317
306,113,124,2,0,-,0.5,1,2,0,-,1.5,3,132.0590000152588,0.308
307,69,52,3,3,+,-0.5,3,3,3,+,0.5,1,-180.86500024795532,0.279
308,22,25,2,2,+,-1.5,1,2,2,+,-0.5,2,49.180999994277954,0.277
309,80,83,2,2,-,-1.5,1,2,2,-,-0.5,2,49.180999755859375,0.277
310,121,120,2,0,-,-0.5,2,2,0,-,0.5,2,-6.814000129699707,0.275
311,52,67,3,3,+,0.5,1,3,3,+,1.5,3,177.05999994277954,0.265
312,14,16,1,0,+,-0.5,2,1,0,+,0.5,3,19.729000002145767,0.262
313,60,50,3,3,+,1.5,2,3,3,+,2.5,1,-107.54399967193604,0.258
314,61,75,3,3,+,0.5,2,3,3,+,1.5,4,146.55699968338013,0.256
315,114,113,2,0,-,-0.5,1,2,0,-,0.5,1,-7.682000160217285,0.255
316,67,59,3,3,+,1.5,3,3,3,+,2.5,2,-86.8919997215271,0.242
317,16,12,1,0,+,0.5,3,1,0,+,1.5,2,-41.185000002384186,0.23
318,26,19,2,2,+,0.5,2,2,2,+,1.5,1,-63.680999994277954,0.228
319,84,77,2,2,-,0.5,2,2,2,-,1.5,1,-63.682000160217285,0.228
320,93,97,3,2,+,-3.5,1,3,2,+,-2.5,2,64.11199998855591,0.21
321,122,126,2,0,-,-1.5,2,2,0,-,-0.5,3,44.71400022506714,0.209
322,99,98,3,2,+,-1.5,2,3,2,+,-0.5,2,-0.03500032424926758,0.208
323,94,86,3,2,+,2.5,2,3,2,+,3.5,1,-90.89200019836426,0.204
324,74,67,3,3,+,0.5,4,3,3,+,1.5,3,-64.53600025177002,0.203
325,21,20,2,2,+,-0.5,1,2,2,+,0.5,1,-4.632000088691711,0.202
326,25,26,2,2,+,-0.5,2,2,2,+,0.5,2,0.5370000600814819,0.202
327,79,78,2,2,-,-0.5,1,2,2,-,0.5,1,-4.631999969482422,0.202
328,83,84,2,2,-,-0.5,2,2,2,-,0.5,2,0.5380001068115234,0.202
329,70,53,3,3,+,-1.5,3,3,3,+,-0.5,1,-177.17899990081787,0.188
330,127,114,2,0,-,-1.5,3,2,0,-,-0.5,1,-138.50699996948242,0.188
331,91,90,3,2,+,-1.5,1,3,2,+,-0.5,1,-3.9800000190734863,0.173
332,62,61,3,3,+,-0.5,2,3,3,+,0.5,2,-5.1529998779296875,0.172
333,89,95,3,2,+,0.5,1,3,2,+,1.5,2,79.99500036239624,0.172
334,99,90,3,2,+,-1.5,2,3,2,+,-0.5,1,-76.49399995803833,0.168
335,90,96,3,2,+,-0.5,1,3,2,+,0.5,2,76.32699966430664,0.167
336,53,52,3,3,+,-0.5,1,3,3,+,0.5,1,-6.468000411987305,0.167
337,115,128,2,0,-,-1.5,1,2,0,-,-0.5,4,155.25900030136108,0.163
338,72,62,3,3,+,-1.5,4,3,3,+,-0.5,2,-124.59999990463257,0.16
339,2,40,1,1,+,-0.5,1,2,1,+,0.5,2,1334121335.92,0.16
340,44,108,1,1,-,-0.5,1,2,1,-,0.5,2,1310169335.9200003,0.16
341,69,68,3,3,+,-0.5,3,3,3,+,0.5,3,-2.0920000076293945,0.158
342,51,66,3,3,+,1.5,1,3,3,+,2.5,3,181.94999980926514,0.144
343,97,91,3,2,+,-2.5,2,3,2,+,-1.5,1,-72.43499994277954,0.142
344,98,89,3,2,+,-0.5,2,3,2,+,0.5,1,-80.3420000076294,0.139
345,104,107,2,1,-,-1.5,1,2,1,-,-0.5,2,49.229000091552734,0.139
346,36,39,2,1,+,-1.5,1,2,1,+,-0.5,2,49.229000091552734,0.139
347,88,94,3,2,+,1.5,1,3,2,+,2.5,2,83.50600004196167,0.127
348,98,96,3,2,+,-0.5,2,3,2,+,0.5,2,-0.13199996948242188,0.127
349,108,101,2,1,-,0.5,2,2,1,-,1.5,1,-63.6560001373291,0.114
350,40,33,2,1,+,0.5,2,2,1,+,1.5,1,-63.65599989891052,0.114
351,91,98,3,2,+,-1.5,1,3,2,+,-0.5,2,72.47899961471558,0.109
352,103,102,2,1,-,-0.5,1,2,1,-,0.5,1,-4.5829997062683105,0.102
353,107,108,2,1,-,-0.5,2,2,1,-,0.5,2,0.6090002059936523,0.102
354,35,34,2,1,+,-0.5,1,2,1,+,0.5,1,-4.583000183105469,0.102
355,39,40,2,1,+,-0.5,2,2,1,+,0.5,2,0.6089999675750732,0.102
356,39,1,2,1,+,-0.5,2,1,1,+,0.5,1,-1334121341.48,0.101
357,107,43,2,1,-,-0.5,2,1,1,-,0.5,1,-1310169341.48,0.101
358,71,54,3,3,+,-2.5,3,3,3,+,-1.5,1,-174.9079999923706,0.099
359,128,113,2,0,-,-0.5,4,2,0,-,0.5,1,-170.81700038909912,0.098
360,55,63,3,3,+,-2.5,1,3,3,+,-1.5,2,90.68000030517578,0.08
361,90,89,3,2,+,-0.5,1,3,2,+,0.5,1,-3.883000373840332,0.075
362,129,112,2,0,-,0.5,4,2,0,-,1.5,1,-187.7130002975464,0.073
363,21,96,2,2,+,-0.5,1,3,2,+,0.5,2,2000342004.0889997,0.071
364,114,129,2,0,-,-0.5,1,2,0,-,0.5,4,172.53700017929077,0.069
365,119,111,2,0,-,1.5,2,2,0,-,2.5,1,-85.8580002784729,0.064
366,96,88,3,2,+,0.5,2,3,2,+,1.5,1,-84.00999975204468,0.064
367,55,72,3,3,+,-2.5,1,3,3,+,-1.5,4,209.86100006103516,0.059
368,98,20,3,2,+,-0.5,2,2,2,+,0.5,1,-2000342008.8529997,0.055
369,36,2,2,1,+,-1.5,1,1,1,+,-0.5,1,-1334121286.082,0.011
370,104,44,2,1,-,-1.5,1,1,1,-,-0.5,1,-1310169286.082,0.011
